Time,q,qd,qdd,tau
0.0,0.12622064772118446,0.6734651232409752,-0.9208985644575,-1.5549405721149463
0.01001001001001001,0.13296204034621925,0.6642469193925518,-1.392727369082266,-2.882961625468408
0.02002002002002002,0.13951888434565998,0.6455826934295184,-1.8866471518347083,-4.193875331590506
0.03003003003003003,0.14588661879325665,0.6264762056421072,-1.9294796073298066,-4.178262999538408
0.04004004004004004,0.15206095052468113,0.6069544730625553,-1.9695872958417695,-4.33231967887897
0.050050050050050046,0.1580378594952097,0.5870450285481779,-2.0069206425991695,-4.344039214369694
0.06006006006006006,0.1638136037488689,0.5667758816191286,-2.041434018446637,-4.478128056989155
0.07007007007007007,0.16938472399208918,0.5461754786293262,-2.073085803625247,-4.72873110821006
0.08008008008008008,0.17474804776547204,0.5252726623273318,-2.1018384458431,-4.7905003318374835
0.09009009009009009,0.17990069320785157,0.5040966308646997,-2.1276585125580887,-4.718806798189086
0.10010010010010009,0.18484007240740796,0.48267689631015287,-2.1505167373940957,-4.874966333194286
0.11011011011011011,0.18956389433518195,0.4610432427286817,-2.170388060625619,-4.944385548454896
0.12012012012012012,0.19407016735693117,0.43922568388521555,-2.187251663677781,-4.888137129074272
0.13013013013013014,0.19835720131987095,0.4172544206330304,-2.201090997585922,-4.761318464261084
0.14014014014014015,0.2024236092114463,0.39515979804765955,-2.211893805377308,-5.0693826391987855
0.15015015015015015,0.20626830838789217,0.3729722623672185,-2.2196521383473993,-4.993001988525454
0.16016016016016016,0.20989052137095018,0.35072231780046437,-2.2243623662012375,-5.075081068280363
0.17017017017017017,0.2132897762117253,0.3284404832640906,-2.2260251810481915,-5.038276159118079
0.18018018018018017,0.21646590642128233,0.3061572491108109,-2.2246455952470896,-5.324516880078772
0.19019019019019018,0.21941905046819798,0.28390303390979454,-2.2202329331009985,-4.985523992258906
0.20020020020020018,0.22214965084390081,0.26170814134102116,-2.212800816413923,-5.222565654371734
0.21021021021021022,0.2246584526972475,0.23960271726487115,-2.2023671439367245,-5.22000623165637
0.22022022022022023,0.22694650204039468,0.21761670702797353,-2.188954064721358,-4.972277221507266
0.23023023023023023,0.22901514352863833,0.19577981306624537,-2.172587945428809,-4.8175348228719255
0.24024024024024024,0.23086601781749666,0.17412145286523462,-2.153299331636804,-4.788766457307612
0.2502502502502503,0.23250105850091535,0.15267071733778081,-2.1311229031997696,-4.725786335055411
0.2602602602602603,0.23392248863506981,0.131456329678052,-2.1060974237263643,-5.004829893708234
0.2702702702702703,0.2351328168528283,0.11050660475066643,-2.0782656842457508,-4.734023496722264
0.2802802802802803,0.2361348330745226,0.08984940907253147,-2.047674441147083,-4.913123558302705
0.2902902902902903,0.23693160382124734,0.06951212144441854,-2.014374348473835,-4.669744763209362
0.3003003003003003,0.23752646713747394,0.04952159428827052,-1.9784198846755996,-4.562470818623972
0.3103103103103103,0.23792302713032182,0.02990411574520735,-1.9398692739178627,-4.578583884740027
0.3203203203203203,0.238125148133374,0.010685372588213227,-1.8987844020648472,-4.202276128669229
0.3303303303303303,0.23813694850345923,-0.008109585997832625,-1.8552307274552051,-4.120847257007781
0.34034034034034033,0.23796279405934329,-0.026456383717196275,-1.8092771865920239,-4.1400477105362
0.35035035035035034,0.23760729117178364,-0.044331351495170424,-1.7609960948905405,-3.8676468755226967
0.36036036036036034,0.23707527951489543,-0.061711560792081954,-1.7104630426199372,-3.938989743873946
0.37037037037037035,0.23637182448925947,-0.07857485585192592,-1.6577567861867748,-3.6656043116685124
0.38038038038038036,0.2355022093276697,-0.09489988483986522,-1.6029591349176413,-3.508362985628242
0.39039039039039036,0.2344719268948678,-0.11066612982425106,-1.5461548335002968,-3.326148101484349
0.40040040040040037,0.23328667119305005,-0.12585393556059188,-1.4874314402528608,-3.2464364278371
0.41041041041041043,0.23195232858534642,-0.1404445370365206,-1.426879201394529,-3.0007715536176796
0.42042042042042044,0.23047496874987644,-0.15442008573866062,-1.3645909214946261,-3.0557267905129497
0.43043043043043044,0.22886083537736523,-0.16776367460398056,-1.3006618302838433,-2.884315175149826
0.44044044044044045,0.22711633662567263,-0.18045936162021903,-1.2351894460248882,-2.451384310971103
0.45045045045045046,0.2252480353449284,-0.19249219204191625,-1.16827343562929,-2.326899541203372
0.46046046046046046,0.22326263908729593,-0.203848219190375,-1.1000154717207167,-2.2499605282496846
0.47047047047047047,0.22116698991569167,-0.21451452380809677,-1.030519086853273,-2.0241552429121588
0.4804804804804805,0.21896805402607275,-0.22447923194019026,-0.9598895250874548,-1.9266558757253347
0.4904904904904905,0.21667291119817034,-0.23373153131735513,-0.8882335911388317,-1.5343236012110482
0.5005005005005005,0.21428874408978935,-0.24226168621724398,-0.815659497312847,-1.6132185701124777
0.5105105105105106,0.2118228273900173,-0.25006105078307783,-0.7422767084416222,-1.609886031684012
0.5205205205205206,0.20928251684688487,-0.2571220807806398,-0.6681957850474998,-1.277248945347825
0.5305305305305306,0.20667523818519967,-0.2634383437770218,-0.5935282249562572,-1.2231149543129638
0.5405405405405406,0.20400847593042798,-0.269004527726711,-0.5183863035841263,-0.9416291982789087
0.5505505505505506,0.2012897621546349,-0.2738164479528802,-0.4428829131247092,-0.7581518843456222
0.5605605605605606,0.19852666516060058,-0.27787105251399247,-0.3671314008692459,-0.3518425674903238
0.5705705705705706,0.19572677812032072,-0.28116642594826047,-0.29124540688858325,-0.313538502973858
0.5805805805805806,0.1928977076841589,-0.2837017913906408,-0.21533870130511978,0.05282748106558592
0.5905905905905906,0.19004706257696455,-0.28547751105947405,-0.13952502139189882,0.04616807575372824
0.6006006006006006,0.18718244219748276,-0.28649508511220034,-0.06391790872762826,0.42495990404795114
0.6106106106106106,0.18431142523738098,-0.286757148871839,0.01136945335934847,0.4361623762060041
0.6206206206206206,0.1814415583361847,-0.2862674684283295,0.08622440182905144,0.5685996436540587
0.6306306306306306,0.17858034478836537,-0.28503093462100715,0.1605349552142954,0.7912565143479702
0.6406406406406406,0.1757352333187471,-0.2830535554110263,0.23418997392289853,1.0926711851588538
0.6506506506506506,0.17291360694229876,-0.28034244665458274,0.30707931933511645,1.1504421750774398
0.6606606606606606,0.17012277192426098,-0.27690582129020314,0.37909401146234245,1.2494460094823137
0.6706706706706707,0.16736994685640882,-0.27275297695563694,0.45012638494374,1.2971659475740944
0.6806806806806807,0.16466225186508904,-0.2678942820520902,0.5200702431626532,1.7528924296962114
0.6906906906906907,0.16200669796647707,-0.262341160275704,0.5888210102608884,1.7483979938665524
0.7007007007007007,0.15941017658429418,-0.25610607363845883,0.6562758808304068,2.0736168954625853
0.7107107107107107,0.15687944924498642,-0.24920250400282296,0.7223339670772351,2.354616119000539
0.7207207207207207,0.15442113746511854,-0.2416449331564321,0.7868964432404155,2.279740902277832
0.7307307307307307,0.15204171284545825,-0.2334488214554673,0.8498666870628053,2.4651728797101953
0.7407407407407407,0.14974748738593002,-0.22463058506708666,0.9111504181170549,2.8388202749491844
0.7507507507507507,0.14754460403530636,-0.21520757184351424,0.9706558327794035,2.6987152229334868
0.7607607607607607,0.14543902748916296,-0.2051980358622938,1.0282937356681447,2.9724605339375567
0.7707707707707707,0.14343653524927447,-0.1946211106689768,1.0839776673564643,2.9026289638595473
0.7807807807807807,0.14154270895725152,-0.1834967812605628,1.137624028176086,3.165046513036237
0.7907907907907907,0.13976292601482876,-0.17184585484963577,1.1891521979366857,3.186225649137746
0.8008008008008007,0.13810235150280437,-0.15968993045101953,1.238484651390209,3.5524700522128443
0.8108108108108109,0.13656593041020373,-0.14705136733431612,1.2855470692790822,3.3814452511509767
0.8208208208208209,0.1351583801848,-0.1339532523873741,1.3302684448014688,3.7099147431539428
0.8308308308308309,0.1338841836156617,-0.12041936643738982,1.3725811853497456,3.7185061952139735
0.8408408408408409,0.13274758205792533,-0.1064741495775694,1.412421209378894,3.8840464499665823
0.8508508508508509,0.13175256900950416,-0.09214266554892347,1.449728038253972,3.7027290593482904
0.8608608608608609,0.13090288404893788,-0.07745056522814053,1.4844448829601107,4.109118171983321
0.8708708708708709,0.13020200714307492,-0.0624240492734458,1.5165187255482606,4.003666439394396
0.8808808808808809,0.12965315333275276,-0.04708982998192912,1.5459003951906558,4.053948152751052
0.8908908908908909,0.12925926780409736,-0.03147509241277202,1.5725446387502404,4.098273308657826
0.9009009009009009,0.1290230213525171,-0.01560745483177417,1.5964101857582644,4.254057114649617
0.9109109109109109,0.12894680624590368,0.00048507146627230213,1.6174598077056817,4.20927552229353
0.9209209209209209,0.129032732492983,0.016774122900071298,1.635660371566669,4.3513123897266945
0.9309309309309309,0.1292826245221814,0.03323102485099039,1.650982887475926,4.378139963530772
0.9409409409409409,0.12969801827578561,0.04982683336004978,1.6634025504958667,4.193557702296059
0.950950950950951,0.13028015872358378,0.06653237721326999,1.6728987764078225,4.284854552702267
0.960960960960961,0.1310299977995748,0.08331830035520138,1.6794552314798765,4.305843980219509
0.970970970970971,0.13194819276472897,0.10015510457022447,1.6830598561711767,4.553122072497869
0.980980980980981,0.1330351049981779,0.11701319237064034,1.6837048827329326,4.6028689839556085
0.990990990990991,0.13429079921859563,0.13386291003034323,1.6813868466868396,4.460311041418768
1.001001001001001,0.1357150431369235,0.1506745907027094,1.676106592160882,4.5064719743013715
1.011011011011011,0.1373073075409722,0.1674185975610918,1.667869271075988,4.491721205263469
1.021021021021021,0.13906676681182023,0.18406536690042685,1.6566843361849362,4.462618289437811
1.031031031031031,0.14099229987131107,0.2005854511383678,1.642565527971648,4.317868851195739
1.0410410410410411,0.1430824915593351,0.216949561654614,1.625530855433281,4.464910013193827
1.0510510510510511,0.14533563443897102,0.23312861140730234,1.6056025707679424,4.233294210884117
1.0610610610610611,0.14774973102694877,0.2490937572655838,1.5828071380068423,4.210003372139573
1.0710710710710711,0.15032249644629,0.2648164419980299,1.557175195635196,4.227846124607091
1.0810810810810811,0.1530513614973798,0.280268435856879,1.5287415132530686,4.115768273395033
1.0910910910910911,0.15593347614312442,0.295421877698792,1.4975449423416354,4.240137155910611
1.1011011011011012,0.15896571340326152,0.31024931558343827,1.4636283612000316,4.014414652845912
1.1111111111111112,0.16214467365230234,0.32472374679188576,1.4270386141341636,4.134884260143471
1.1211211211211212,0.16546668931501096,0.33881865720774584,1.3878264449875353,3.87499542422038
1.1311311311311312,0.16892782995275774,0.35250806000484936,1.3460464250997894,3.744677684025257
1.1411411411411412,0.17252390773352647,0.36576653358612,1.301756875801047,3.621927733402572
1.1511511511511512,0.17625048327780518,0.378569258719585,1.255019785554854,3.452578135221255
1.1611611611611612,0.1801028718720567,0.39089205481844935,1.2059007218621964,3.5303605050979825
1.1711711711711712,0.18407615004093728,0.4027114153134228,1.1544687380566536,3.4496856051726423
1.1811811811811812,0.188165162468922,0.4140045420668308,1.100796275118956,3.260216454692384
1.1911911911911912,0.19236452926149444,0.42474937877926777,1.0449590586511661,3.0567896167718747
1.2012012012012012,0.19666865353557403,0.43492464334112846,0.9870359911641664,2.942979079747401
1.2112112112112112,0.2010717293283839,0.4445098590828547,0.9271090398253108,2.697889823319319
1.2212212212212212,0.20556774981350906,0.45348538487917267,0.8652631198221847,2.7423951228213985
1.2312312312312312,0.21015051581245142,0.4618324440642798,0.801585973519451,2.5476639980327813
1.2412412412412412,0.2148136445895707,0.46953315211679936,0.736168045573887,2.3673618660742997
1.2512512512512513,0.21955057891789284,0.476570543074768,0.6691023541827903,2.347807508296103
1.2612612612612613,0.22435459640287936,0.4829285946429813,0.6004843586595818,2.0927452202372434
1.2712712712712713,0.22921881905088548,0.48859225195684175,0.5304118235144166,1.9793107445852915
1.2812812812812813,0.234136223068682,0.49354744996859523,0.45898467923334607,1.8592243489516336
1.2912912912912913,0.23909964888008656,0.49778113442397576,0.3863048799673834,1.6001793120272527
1.3013013013013013,0.24410181134543826,0.5012812813993737,0.31247625832194004,1.576692458522773
1.3113113113113113,0.24913531016936333,0.504036915371362,0.23760437744909169,1.1910316514655972
1.3213213213213213,0.2541926404820021,0.5060381257927489,0.16179638067086088,1.059850976058052
1.3313313313313313,0.25926620357862756,0.5072760821515594,0.08516083883310444,0.922300150048226
1.3413413413413413,0.2643483178023536,0.5077430474911093,0.007807595610795914,0.7051991434774835
1.3513513513513513,0.26943122955442556,0.5074323903719957,-0.07015238900988763,0.47380951736331256
1.3613613613613613,0.27450712441640757,0.5063385952586792,-0.1486071968606808,0.25277951063568355
1.3713713713713713,0.2795681383684131,0.5044572713157258,-0.2274441110951777,0.03303168684950325
1.3813813813813813,0.28460636908739306,0.501785159601118,-0.3065497768417522,0.07051456128879299
1.3913913913913913,0.2896138873093764,0.49832013864622127,-0.3858103627857652,-0.21095765566147687
1.4014014014014013,0.29458274823946956,0.49406122841421585,-0.46511172344537854,-0.48120054383661776
1.4114114114114114,0.2995050029933447,0.4890085926312988,-0.5443395619024436,-0.7699994360217607
1.4214214214214214,0.30437271005391,0.48316353948724,-0.6233795927712826,-0.8392640042394606
1.4314314314314314,0.30917794672682297,0.4765285207039458,-0.7021177051627525,-1.0749320052087852
1.4414414414414414,0.3139128205785135,0.4691071289734712,-0.7804401254112427,-1.463084516430962
1.4514514514514514,0.318569480840406,0.4609040937687858,-0.8582335793430147,-1.3176964313918564
1.4614614614614614,0.32314012976307377,0.45192527553317063,-0.9353854538446633,-1.6608761107580032
1.4714714714714714,0.32761703390413316,0.4421776582563801,-1.0117839575023275,-1.7990538714267645
1.4814814814814814,0.3319925353337721,0.43166934044803895,-1.0873182800869294,-1.8273961665625706
1.4914914914914914,0.3362590627419317,0.4204095245209061,-1.1618787506615114,-2.1416886687382983
1.5015015015015014,0.3404091424312877,0.4084085045989596,-1.2353569940737792,-2.424342941998001
1.5115115115115114,0.3444354091803493,0.3956776527676773,-1.307646085622114,-2.4067179659496953
1.5215215215215214,0.3483306169611711,0.38222940378570414,-1.3786407036704063,-2.556717735309689
1.5315315315315314,0.3520876494963794,0.3680772382797812,-1.4482372799885752,-2.8072644148114456
1.5415415415415414,0.355699530640446,0.3532356644465935,-1.5163341476217589,-3.0698156994261887
1.5515515515515514,0.3591594345703853,0.33772019828735367,-1.5828316860605938,-3.207472229168104
1.5615615615615615,0.362460695771324,0.3215473424033384,-1.6476324635059783,-3.534249179098621
1.5715715715715715,0.36559681880268435,0.30473456338232907,-1.7106413760396428,-3.5572893587000207
1.5815815815815815,0.36856148783103027,0.28730026780795015,-1.7717657834927731,-3.5927700275535517
1.5915915915915915,0.3713485759159566,0.26926377692601733,-1.8309156418160573,-3.853640445994313
1.6016016016016015,0.3739521540357553,0.2506453000038249,-1.8880036317704647,-3.8796467306635978
1.6116116116116117,0.37636649983995724,0.23146590642010167,-1.9429452837531027,-4.1943262759085
1.6216216216216217,0.3785861061162379,0.2117474965252839,-1.9956590985727303,-4.34467382479821
1.6316316316316317,0.3806056889595826,0.1915127713135405,-2.046066664016479,-4.376563767507728
1.6416416416416417,0.3824201956320245,0.17078520094937844,-2.094092767032877,-4.5082184390280045
1.6516516516516517,0.38402481210171224,0.1495889921937632,-2.139665501368249,-4.543783754500988
1.6616616616616617,0.3854149702505183,0.12794905477583995,-2.182716370512983,-4.92917971489424
1.6716716716716717,0.38658635473986724,0.10589096675806786,-2.223180385804252,-4.744884550466813
1.6816816816816818,0.38753490952495406,0.08344093894392302,-2.2609961595480015,-4.863754797646385
1.6916916916916918,0.38825684400801386,0.06062577837872851,-2.2961059930241285,-5.103167458011436
1.7017017017017018,0.38874863882182553,0.037472850995492024,-2.328455959253803,-5.145517212882943
1.7117117117117118,0.3890070512351508,0.014010043458732468,-2.3579959804087944,-5.216435986680258
1.7217217217217218,0.3890291201723507,-0.009734275739418763,-2.3846798997517253,-5.279297002700342
1.7317317317317318,0.3888121708399672,-0.03373129587563639,-2.4084655480083965,-5.283169996927801
1.7417417417417418,0.3883538189536192,-0.05795180422807533,-2.4293148040722814,-5.435219770674541
1.7517517517517518,0.38765197455912487,-0.08236622688809447,-2.447193649956366,-5.505498801186696
1.7617617617617618,0.38670484544234607,-0.10694467009306763,-2.462072219918144,-5.249999888747877
1.7717717717717718,0.3855109401228273,-0.13165696202159083,-2.473924843684321,-5.458658530748991
1.7817817817817818,0.3840690704268988,-0.15647269499165262,-2.4827300837115036,-5.574130168583323
1.7917917917917918,0.38237835363650785,-0.18136126800180108,-2.4884707664292813,-5.62818000983935
1.8018018018018018,0.38043821421064655,-0.20629192955480136,-2.4911340074304,-5.5106736959107145
1.8118118118118118,0.3782483850768522,-0.23123382070311038,-2.4907112305652515,-5.568297434157623
1.8218218218218218,0.37580890849086457,-0.2561560182548064,-2.487198180904821,-5.539787854425589
1.8318318318318318,0.37312013646314235,-0.28102757807858225,-2.480594931568211,-5.4973095870258435
1.8418418418418419,0.3701827307515536,-0.30581757844636215,-2.4709058844019562,-5.409027754402047
1.8518518518518519,0.3669976624201722,-0.33049516335189466,-2.45813976450348,-5.3083797063657725
1.8618618618618619,0.36356621096472885,-0.3550295857437291,-2.442309608594943,-5.2804653766485465
1.8718718718718719,0.3598899630058833,-0.3793902506110527,-2.4234327472767205,-5.2353044597183835
1.8818818818818819,0.3559708105520952,-0.40354675786138117,-2.401530781178458,-5.215555114977424
1.8918918918918919,0.35181094883448427,-0.4274689449289397,-2.376629551029538,-5.243549044333053
1.901901901901902,0.347412873716681,-0.45112692905316365,-2.348759101714762,-4.9537612347379945
1.911911911911912,0.34277937868326974,-0.4744911491674735,-2.317953640352389,-5.118087062454426
1.921921921921922,0.33791355141102586,-0.4975324073384968,-2.2842514884455802,-4.866456029290697
1.931931931931932,0.3328187699277443,-0.5202219096969145,-2.247695028198134,-4.846178448679769
1.941941941941942,0.3274986983640406,-0.5425313068019229,-2.208330643057181,-4.627855741628195
1.951951951951952,0.3219572823040822,-0.5644327333817429,-2.166208652558222,-4.635207082155302
1.961961961961962,0.3161987437417835,-0.585898847393679,-2.1213832415820875,-4.348557679122194
1.971971971971972,0.3102275756495541,-0.6069028683483513,-2.073912384123666,-4.369199715997676
1.981981981981982,0.3040485361672419,-0.6274186148436023,-2.0238577616654645,-4.07318781656507
1.991991991991992,0.29766664241945195,-0.6474205412545668,-1.9712846762801988,-4.019764682435755
2.002002002002002,0.29108716396995316,-0.666883773527891,-1.9162619585999607,-3.858452081834423
2.012012012012012,0.2843156159223969,-0.6857841440293413,-1.8588618707580409,-3.8225221519484385
2.022022022022022,0.27735775167707344,-0.7040982253949188,-1.799160004454329,-3.6537888612076923
2.032032032032032,0.27021955535393005,-0.7218033633377363,-1.737235174300146,-3.4633058814049273
2.042042042042042,0.2629072338925342,-0.7388777083638907,-1.673169306567452,-3.295830999428347
2.052052052052052,0.2554272088401385,-0.7553002463520997,-1.6070473235215843,-2.9509192603726655
